millis,sens0,sens1,sens2
10791,460,527,456
10835,467,447,470
10874,467,467,452
10921,471,437,468
10965,471,464,468
11009,473,461,442
11053,474,493,471
11097,465,490,461
11137,466,498,460
11176,462,479,451
11216,465,449,466
11255,469,486,455
11294,469,449,473
11333,470,445,464
11372,473,432,467
11412,464,464,463
11451,470,468,462
11490,466,495,467
11529,459,457,464
11569,467,483,457
11608,463,492,475
11647,462,469,460
11686,475,458,467
11726,464,453,461
11765,461,421,470
11804,478,444,464
11850,475,472,467
11889,471,456,471
11928,471,460,461
11970,473,491,470
12009,461,482,485
12048,475,505,451
12088,476,434,473
12127,466,462,470
12166,457,421,478
12206,473,452,458
12245,460,458,419
12284,462,453,442
12323,430,529,527
12363,470,542,532
12402,460,507,493
12441,419,478,503
12494,481,483,492
12533,431,403,437
12572,445,477,458
12620,414,480,406
12664,408,470,546
12708,481,468,444
12752,324,478,456
12796,547,440,452
12836,383,414,470
12876,503,429,430
12915,688,435,483
12961,589,491,589
13000,451,467,408
13040,399,535,432
13079,555,500,392
13119,545,486,506
13158,587,423,523
13197,522,409,402
13239,472,487,417
13279,484,458,487
13318,570,422,472
13357,498,508,499
13397,507,438,430
13436,501,472,411
13476,500,475,443
13515,490,524,445
13555,498,286,442
13594,482,375,423
13633,483,368,454
13673,475,207,431
13712,468,466,479
13752,474,383,438
13791,467,486,454
13831,469,477,464
13870,463,521,463
13909,471,454,478
13949,458,545,463
13988,463,453,462
14034,462,502,470
14074,454,499,479
14113,441,444,471
14153,460,502,458
14192,447,474,476
14232,455,402,496
14279,455,485,512
14323,453,504,476
14367,462,434,483
14411,450,471,461
14454,465,452,461
14495,452,412,472
14536,468,440,470
14576,451,472,480
14615,466,457,475
14654,462,479,470
14693,460,481,488
14732,461,436,474
14772,461,472,473
14811,458,492,453
14850,454,447,463
14889,454,470,466
14929,456,450,491
14968,464,480,476
15007,446,505,496
15046,477,458,458
15086,454,449,453
15131,473,457,471
15171,444,492,462
15210,442,445,480
15249,381,422,459
15288,439,442,513
15328,455,447,506
15367,487,443,516
15406,476,402,432
15445,472,553,436
15485,428,389,415
15524,563,444,493
15563,376,501,573
15603,491,578,553
15642,391,549,379
15681,503,384,357
15720,496,582,469
15766,656,461,553
15806,570,523,342
15845,563,425,422
15884,505,424,489
15924,457,443,433
15971,498,405,286
16015,501,531,635
16059,406,519,395
16103,516,470,498
16147,520,473,525
16188,506,540,459
16234,466,462,433
16273,491,438,477
16312,485,460,453
16352,494,429,462
16404,494,373,436
16444,477,426,450
16483,463,349,448
16522,458,526,453
16562,449,434,441
16601,463,350,444
16641,457,487,453
16680,454,471,459
16720,465,437,443
16759,455,427,456
16798,456,454,465
16838,460,409,464
16877,455,433,477
16917,464,467,465
16959,465,456,477
16998,462,443,473
17037,466,462,470
17077,463,456,473
17116,471,444,474
17156,467,510,477
17195,451,461,472
17235,463,430,475
17274,461,472,465
17320,468,397,475
17360,452,478,475
17399,462,469,475
17438,464,509,472
17478,455,484,472
17517,462,405,471
17557,457,491,465
17596,461,471,470
17644,458,455,473
17688,466,477,466
17731,461,430,479
17775,461,466,471
17819,473,454,469
17860,462,487,470
17899,462,437,463
17938,470,458,463
17977,456,488,459
18016,468,462,468
18056,471,471,467
18095,460,460,466
18134,468,451,469
18173,467,469,464
18213,462,484,471
18254,470,454,476
18294,466,468,468
18333,467,455,468
18372,462,480,446
18418,471,467,467
18457,463,461,467
18496,457,474,465
18535,475,455,463
18575,463,481,465
18614,467,447,467
18653,468,476,472
18692,461,478,466
18732,472,454,471
18771,466,469,475
18810,464,454,465
18850,466,437,473
18889,470,470,473
18928,467,479,481
18967,477,462,467
19007,477,453,473
19046,455,462,463
19085,467,451,472
19124,449,464,458
19164,458,447,528
19203,468,479,456
19242,401,454,506
19282,424,471,433
19329,488,472,486
19373,471,466,553
19417,431,503,406
19461,426,419,368
19515,349,478,394
19555,455,488,435
19594,511,494,493
19633,281,457,457
19673,499,433,675
19712,367,524,490
19751,520,399,478
19791,465,558,387
19830,385,495,545
19870,483,458,340
19909,525,458,363
19948,528,192,372
19988,453,509,488
20027,529,483,435
20067,598,534,448
20106,515,482,440
20145,500,488,384
20185,507,493,447
20224,493,490,428
20277,500,552,433
20316,500,427,440
20356,481,411,455
20395,461,383,445
20435,464,365,438
20474,457,453,453
20514,444,507,449
20553,462,459,454
20599,467,469,471
20639,469,490,463
20678,447,396,463
20717,471,413,462
20764,455,484,471
20803,464,471,471
20842,459,403,471
20882,459,431,470
20921,467,463,480
20961,456,457,476
21008,457,474,457
21052,464,485,481
21096,457,494,476
21140,464,471,480
21184,468,487,474
21224,459,501,474
21263,453,463,471
21302,459,470,479
21342,460,471,461
21381,464,418,466
21420,469,473,482
21459,454,476,467
21499,460,460,474
21538,467,471,473
21577,457,475,470
21616,466,421,461
21655,462,488,468
21701,461,453,465
21740,463,504,470
21780,460,467,447
21819,468,408,499
21858,455,468,476
21897,456,468,490
21939,472,449,484
21979,462,444,471
22018,473,472,473
22057,464,455,485
22096,458,456,492
22136,471,445,487
22175,461,498,493
22214,455,472,466
22253,480,508,488
22293,464,473,454
22332,469,447,463
22371,472,435,476
22410,459,455,479
22450,471,421,459
22489,478,468,446
22528,443,456,487
22568,494,512,402
22607,424,476,539
22646,454,471,473
22693,481,472,505
22737,494,469,569
22793,428,504,454
22837,237,458,411
22877,476,485,441
22917,554,461,381
22956,517,409,294
22996,586,340,375
23035,473,430,378
23074,623,493,416
23114,508,373,469
23153,514,472,563
23192,507,472,397
23234,467,548,400
23274,585,471,387
23313,480,479,392
23353,527,476,459
23392,489,496,460
23431,504,471,448
23471,494,429,437
23510,470,480,453
23550,488,451,451
23589,477,414,448
23628,454,427,443
23668,459,351,434
23707,461,553,441
23747,456,393,449
23786,467,446,445
23826,454,477,443
23864,458,419,454
23904,471,412,447
23943,447,448,467
23983,470,473,477
24022,469,473,471
24062,454,496,466
24101,474,449,477
24154,471,459,483
24193,459,487,472
24233,458,455,476
24272,465,477,490
24311,460,457,469
24351,464,470,475
24398,459,456,468
24442,455,472,477
24488,463,492,470
24532,460,441,470
24576,462,472,474
24616,466,450,462
24656,466,498,471
24695,457,470,469
24734,464,480,469
24773,467,476,472
24812,458,476,472
24852,465,448,469
24891,465,469,466
24937,470,481,471
24976,458,457,472
25015,457,450,468
25054,470,456,461
25094,460,439,466
25133,471,455,466
25172,468,459,474
25211,466,456,468
25250,470,461,466
25290,465,504,460
25329,459,444,465
25368,467,458,466
25407,458,478,453
25447,448,463,477
25486,446,458,354
25525,475,453,461
25565,450,509,468
25604,491,429,476
25643,468,486,499
25682,453,457,457
25722,463,483,502
25768,458,456,487
25807,420,485,537
25846,452,457,478
25885,444,410,396
25925,521,404,398
25964,517,429,391
26010,385,459,530
26057,468,534,681
26101,531,401,373
26145,467,462,353
26189,405,468,427
26233,530,501,416
26274,415,442,436
26313,420,493,355
26353,520,507,422
26392,462,500,458
26431,552,468,455
26471,384,511,482
26510,420,494,441
26550,501,402,430
26589,526,487,443
26628,484,490,454
26668,492,441,460
26707,479,476,452
26747,467,483,453
26786,460,433,449
26825,457,475,463
26865,465,432,455
26904,463,422,448
26946,457,423,462
26985,461,439,460
27025,459,439,459
27064,457,427,455
27110,457,446,453
27150,459,475,464
27189,461,497,465
27229,460,387,463
27268,464,376,471
27308,459,498,467
27347,455,468,473
27386,469,437,467
27426,461,483,476
27465,465,406,474
27505,466,454,474
27544,460,455,479
27584,466,394,472
27623,464,483,468
27663,459,464,468
27702,458,471,469
27749,465,447,475
27793,455,476,466
27837,466,494,458
27881,457,455,473
27925,461,462,469
27965,458,471,468
28005,472,481,473
28057,465,477,473
28096,468,458,472
28135,471,473,473
28175,464,485,467
28223,465,478,466
28262,459,485,459
28301,470,428,458
28341,469,490,470
28380,466,438,474
28419,471,470,467
28458,461,502,469
28497,458,460,468
28537,467,439,461
28576,457,470,467
28615,457,436,468
28654,469,458,462
28694,460,467,466
28733,468,421,471
28772,468,469,464
28811,466,459,470
28851,473,452,463
28890,465,478,463
28929,461,470,462
28969,471,448,468
29008,467,448,458
29047,462,425,465
29086,469,463,468
29126,461,475,463
29165,471,457,465
29204,474,475,463
29244,461,464,455
29289,465,510,465
29329,462,466,456
29368,465,473,460
29415,471,425,463
29462,465,497,467
29506,479,476,466
29550,462,464,465
29594,459,509,471
29636,463,480,462
29675,464,485,461
29715,450,424,462
29754,466,473,466
29794,466,468,450
29833,472,419,446
29872,475,496,482
29912,443,474,446
29951,474,523,474
29991,453,535,457
30030,467,475,484
30069,471,512,466
30109,460,492,490
30148,474,442,479
30188,466,508,474
30227,467,467,471
30267,467,454,456
30306,464,506,507
30346,469,487,457
30392,465,480,458
30431,465,457,453
30471,463,500,454
30510,459,458,460
30549,465,443,457
30589,469,471,461
30629,459,466,459
30668,469,412,450
30707,463,485,462
30754,467,439,461
30793,461,448,461
30833,470,451,464
30872,470,466,457
30912,464,453,461
30952,466,460,468
30991,462,515,470
31031,467,448,465
31078,454,429,461
31122,464,464,462
31166,469,479,465
31210,463,469,468
31254,475,472,478
31296,462,460,466
31335,469,422,465
31374,465,474,467
31414,456,423,481
31453,469,469,460
31499,467,422,463
31538,481,479,472
31578,467,449,472
31617,471,453,464
31657,473,467,471
31696,462,471,465
31735,461,429,470
31775,458,493,467
31814,457,454,464
31853,472,502,466
31893,464,503,466
31948,468,402,466
31987,471,462,464
32026,455,460,472
32065,465,420,454
32105,476,527,457
32144,457,457,448
32183,472,495,465
32222,455,504,466
32262,448,478,478
32301,466,507,457
32340,467,436,461
32380,456,442,449
32419,478,468,471
32458,463,438,459
32497,469,473,469
32537,465,454,469
32582,476,424,468
32622,466,498,460
32661,452,469,468
32708,458,493,458
32752,476,434,464
32797,470,476,463
32841,470,480,465
32885,471,472,472
32927,463,479,464
32966,469,464,454
33006,463,486,463
33045,461,371,461
33085,467,473,458
33125,463,457,461
33164,464,440,474
33206,470,452,460
33246,458,456,461
33285,471,462,464
33325,465,442,459
33364,461,460,472
33404,470,476,463
33443,459,486,461
33483,468,461,465
33522,467,478,463
33562,459,461,466
33602,469,448,466
33641,462,481,462
33687,473,472,465
33727,457,468,470
33767,470,461,466
33806,470,498,467
33846,465,463,464
33885,469,456,460
33925,459,478,468
33965,467,442,466
34004,475,461,466
34044,456,477,464
34083,470,446,462
34123,473,475,468
34162,464,444,465
34202,467,457,466
34242,469,485,464
34281,469,456,463
34321,468,483,459
34368,471,466,465
34412,464,460,463
34456,462,447,460
34503,486,459,458
34547,476,432,455
34588,470,486,473
34628,484,437,460
34667,483,425,443
34706,475,438,456
34746,463,420,471
34792,489,485,462
34831,457,453,459
34871,461,507,458
34910,465,500,472
34949,483,460,469
34989,468,471,462
35028,486,516,465
35067,472,449,478
35107,462,501,456
35146,478,463,469
35186,463,481,465
35225,471,492,470
35264,465,447,465
35304,472,481,485
35343,457,494,491
35382,461,456,456
35422,470,457,476
35461,475,479,460
35501,472,482,458
35540,466,512,459
35579,458,423,473
35619,469,475,457
35658,459,487,477
35698,465,452,461
35744,464,448,464
35783,476,444,463
35836,473,463,465
35882,464,463,453
35921,467,488,467
35960,456,459,463
36007,465,464,461
36051,473,414,464
36095,468,456,459
36139,467,462,466
36183,471,427,469
36225,459,472,465
36265,464,449,462
36304,473,482,463
36343,458,466,461
36383,470,415,462
36422,467,469,468
36462,460,429,467
36501,469,452,465
36540,461,442,465
36580,458,463,464
36619,473,482,465
36659,468,470,466
36698,466,457,469
36737,469,460,458
36777,461,457,465
36816,467,473,463
36856,464,470,465
36895,456,446,469
36937,467,411,459
36983,464,454,463
37022,465,487,466
37062,465,453,475
37101,469,472,466
37141,469,476,463
37180,487,460,471
37220,480,449,461
37259,449,487,468
37299,464,432,462
37338,464,482,463
37377,476,446,460
37417,489,429,490
37456,473,410,466
37496,453,461,481
37535,462,450,466
37575,460,453,438
37614,460,423,461
37662,453,483,452
37706,470,533,467
37749,481,467,466
37793,460,446,453
37837,481,455,469
37879,447,507,458
37918,455,485,471
37957,459,529,457
37996,479,462,477
38036,467,436,461
38081,467,461,467
38121,473,476,487
38160,467,477,463
38202,469,444,461
38241,464,441,456
38280,459,482,468
38319,471,499,468
38359,461,477,467
38398,461,451,460
38437,463,484,462
38476,459,480,454
38516,464,468,465
38555,468,467,467
38594,454,464,461
38633,470,460,461
38673,466,467,470
38712,459,466,461
38751,470,458,463
38790,465,454,468
38830,459,448,460
38869,472,464,463
38908,464,467,461
38947,467,464,464
38987,475,477,461
39026,466,470,466
39065,468,458,466
39105,466,470,460
39151,473,447,462
39190,469,478,468
39229,464,389,470
39276,460,470,464
39321,468,465,464
39365,464,457,467
39409,465,450,456
39453,473,467,463
39497,467,467,468
39537,471,488,466
39576,464,465,472
39616,473,456,465
39655,469,476,464
39695,464,456,473
39748,462,442,469
39787,471,457,464
39827,461,477,465
39866,473,452,461
39905,470,478,461
39945,464,460,464
39984,474,470,462
40024,466,500,462
40063,461,446,466
40103,471,463,464
40142,463,481,460
40182,487,440,459
40221,461,429,461
40267,486,475,465
40307,461,418,466
40346,459,472,471
40386,462,479,462
40425,459,505,466
40465,463,477,463
40504,467,434,472
40544,463,461,465
40583,465,426,464
40623,479,482,451
40663,458,458,464
40702,474,461,457
40748,471,424,465
40788,473,509,446
40827,478,436,470
40867,472,445,472
40906,462,491,470
40954,468,459,468
40997,475,465,473
41041,467,442,460
41085,475,452,475
41129,475,448,440
41171,469,470,476
41210,466,458,470
41249,462,441,459
41288,478,489,465
41327,461,476,457
41373,469,489,470
41412,461,455,456
41452,468,455,463
41491,463,476,464
41530,465,450,456
41569,471,447,458
41609,458,480,458
41648,464,447,468
41687,471,460,458
41726,466,471,459
41766,469,462,473
41805,469,483,466
41844,455,445,466
41883,466,441,462
41925,461,487,462
41964,464,455,466
42004,473,461,461
42043,462,508,464
42082,473,473,466
42121,465,477,467
42161,457,466,469
42200,467,459,465
42239,467,475,457
42278,460,458,461
42318,471,457,464
42357,463,455,464
42396,459,468,464
42442,459,473,464
42481,462,427,463
42521,471,458,464
42568,471,493,463
42612,462,431,464
42656,468,470,463
42700,469,444,465
42744,460,463,468
42786,468,443,468
42825,457,485,474
42865,440,467,459
42904,487,482,481
42944,464,496,459
42983,469,451,466
43022,439,488,482
43062,469,450,484
43101,453,471,494
43141,445,470,440
43180,441,508,481
43222,449,510,468
43261,451,479,452
43301,395,469,465
43340,412,487,475
43380,486,446,447
43419,534,481,455
43458,468,390,470
43498,454,507,499
43544,532,455,453
43583,500,499,461
43636,458,493,457
43675,386,469,458
43715,530,457,461
43754,498,480,511
43794,457,480,450
43833,510,487,433
43873,488,478,458
43912,471,430,468
43952,483,433,480
43991,459,458,468
44030,484,469,445
44070,491,396,459
44109,479,383,456
44149,478,464,457
44188,478,463,457
44236,479,517,460
44280,471,463,461
44323,470,490,455
44367,471,478,464
44411,461,413,464
44453,470,477,467
44494,455,481,464
44534,468,473,471
44573,467,473,467
44612,458,463,466
44650,463,435,466
44690,462,494,462
44729,452,461,460
44768,469,489,469
44807,460,483,454
44847,457,424,457
44886,467,486,473
44925,460,451,464
44964,462,467,453
45003,466,471,471
45043,456,442,471
45082,461,463,463
45121,467,480,466
45160,459,481,468
45200,469,458,464
45239,469,502,464
45278,460,445,466
45318,462,454,462
45357,465,471,474
45396,457,474,468
45435,474,465,471
45475,519,510,455
45514,463,347,461
45553,448,438,509
45592,448,479,475
45632,461,451,487
45678,433,448,478
45724,426,429,467
45763,424,319,457
45802,475,332,460
45842,454,449,451
45889,412,439,489
45933,408,468,476
45977,463,477,451
46021,478,439,483
46065,475,465,465
46108,510,339,449
46147,411,467,489
46187,494,400,460
46226,452,500,478
46266,555,448,476
46305,372,485,482
46344,431,466,469
46384,482,461,456
46423,477,532,461
46463,479,463,455
46502,471,411,460
46541,470,458,460
46581,473,459,456
46620,482,488,451
46660,468,453,455
46699,467,478,472
46739,463,472,462
46785,471,471,441
46824,464,477,466
46864,463,440,456
46903,469,483,460
46945,458,486,466
46984,469,452,468
47024,463,449,456
47063,456,432,475
47102,468,472,469
47142,458,440,463
47181,464,458,468
47221,464,525,465
47260,459,458,453
47300,466,473,463
47339,464,475,465
47379,457,469,466
47418,468,470,472
47458,466,483,477
47518,471,460,468
47562,462,445,476
47606,471,513,467
47650,493,466,468
47694,435,443,470
47737,465,453,489
47776,474,471,459
47815,435,468,493
47854,498,490,475
47900,458,413,463
47939,429,465,448
47979,439,427,455
48018,504,508,454
48057,456,467,476
48096,488,432,517
48136,556,452,434
48175,457,472,465
48217,469,482,500
48256,439,523,461
48295,478,454,471
48334,511,519,514
48374,474,486,453
48413,446,504,450
48452,352,456,473
48491,410,482,441
48531,405,467,462
48570,525,503,445
48609,370,470,480
48648,538,517,443
48688,478,468,479
48727,462,403,439
48766,436,443,432
48806,533,473,451
48845,458,455,495
48884,506,447,433
48923,469,472,460
48969,474,461,459
49009,471,402,465
49048,469,414,467
49095,465,456,458
49139,474,474,463
49183,472,399,462
49227,468,434,466
49271,478,475,460
49314,464,433,456
49354,471,459,456
49393,458,469,466
49433,461,466,477
49474,458,491,465
49514,464,467,468
49553,471,473,459
49592,454,431,470
49632,470,473,462
49671,469,443,477
49711,462,476,462
49750,464,463,493
49789,474,485,465
49829,458,435,474
49868,472,458,467
49908,467,459,467
49947,460,450,463
49987,468,483,476
50026,456,469,465
50072,467,472,467
50112,457,490,460
50151,464,442,468
50190,458,475,468
50230,461,443,471
50269,473,479,473
50309,458,482,463
50348,470,463,458
50388,486,493,463
50427,455,456,471
50467,429,453,479
50506,478,454,457
50546,457,454,442
50585,460,450,481
50625,449,453,463
50664,481,455,461
50711,411,477,489
50762,467,442,474
50806,488,452,454
50850,506,440,446
50893,454,442,453
50936,448,464,439
50975,364,451,463
51015,481,486,490
51054,401,481,451
51093,520,470,468
51132,405,475,454
51178,517,529,553
51217,489,471,463
51257,508,493,460
51296,414,468,496
51335,500,475,451
51374,461,474,465
51427,481,468,463
51466,478,433,464
51505,486,486,456
51544,473,391,458
51584,484,436,462
51623,479,441,458
51662,464,403,459
51702,476,441,461
51741,464,455,453
51780,464,435,464
51819,472,508,456
51859,460,478,459
51898,463,430,457
51940,462,486,463
51979,459,460,467
52018,469,416,466
52057,460,449,474
52097,457,487,465
52136,470,451,468
52175,458,478,470
52215,466,449,464
52261,456,466,467
52308,465,442,466
52352,467,462,465
52396,459,453,461
52440,468,466,463
52484,467,454,461
52527,461,472,470
52566,466,428,446
52606,427,494,472
52645,447,469,466
52684,449,443,466
52724,446,490,467
52763,456,427,455
52803,465,428,459
52842,468,455,469
52881,490,446,467
52921,471,489,467
52960,470,455,453
53000,455,464,481
53039,450,463,482
53079,425,461,441
53118,443,424,467
53157,465,463,438
53199,469,431,503
53239,522,498,463
53278,479,455,510
53318,424,471,503
53364,475,448,456
53403,475,451,441
53443,509,450,471
53482,483,429,448
53521,466,464,476
53561,473,477,458
53600,463,440,457
53640,475,489,477
53679,470,470,450
53719,474,426,461
53758,468,442,470
53798,468,457,463
53837,478,472,468
53877,468,447,462
53924,463,477,461
53968,475,485,457
54012,463,427,465
54055,476,472,465
54099,464,457,462
54142,457,463,460
54181,460,451,464
54221,463,478,468
54260,464,473,469
54299,460,445,465
54338,464,460,466
54377,454,465,465
54417,464,450,462
54465,458,480,469
54504,467,505,461
54543,464,469,470
54582,466,445,465
54622,475,463,460
54661,464,461,491
54700,461,472,456
54739,468,477,465
54779,458,496,458
54818,467,455,499
54857,469,481,449
54896,471,446,431
54936,432,472,443
54975,473,441,487
55014,406,435,619
55053,518,440,604
55093,471,448,449
55132,462,449,475
55171,474,495,501
55210,339,476,470
55250,431,466,404
55302,441,471,465
55341,499,489,572
55381,476,498,664
55420,513,503,446
55459,446,459,541
55499,519,437,470
55557,452,485,478
55601,482,442,446
55645,477,325,462
55689,484,488,464
55739,479,381,463
55778,458,458,459
55818,467,477,462
55857,471,497,454
55896,471,451,445
55936,475,465,461
55975,467,526,464
56015,461,440,451
56054,467,476,457
56093,455,493,457
56133,418,422,443
56172,477,489,463
56212,463,485,464
56251,466,450,448
56291,460,462,502
56330,466,399,453
56369,469,463,474
56409,452,465,460
56448,464,454,461
56488,466,472,471
56527,459,473,465
56567,460,435,454
56606,464,477,477
56652,470,462,461
56692,465,490,461
56731,466,459,468
56771,474,475,472
56810,464,465,460
56849,465,437,452
56889,471,465,470
56931,460,452,452
56970,476,461,475
57010,463,471,458
57049,465,450,448
57089,469,448,459
57136,470,472,488
57180,459,472,520
57224,469,490,552
57267,490,451,605
57311,405,435,584
57354,493,438,512
57393,456,459,478
57433,518,462,477
57472,442,462,369
57511,399,425,443
57550,498,462,419
57589,456,478,495
57629,470,490,537
57668,483,473,652
57707,491,493,530
57753,459,474,519
57792,412,462,438
57831,446,447,476
57871,445,423,480
57910,376,475,445
57949,473,471,471
57988,452,427,500
58028,482,452,552
58067,425,463,482
58106,470,488,421
58146,487,471,489
58187,486,447,470
58227,478,445,456
58266,476,476,465
58305,485,516,473
58344,464,504,467
58384,469,451,442
58423,464,494,458
58462,462,463,459
58502,472,442,464
58541,468,470,475
58580,460,475,456
58619,466,479,460
58659,466,495,458
58698,458,443,461
58745,458,468,465
58789,467,441,462
58845,457,474,464
58889,469,480,470
58932,465,450,458
58971,471,436,459
59010,461,487,468
59050,465,446,463
59089,452,472,500
59129,442,482,383
59168,484,498,456
59221,469,443,479
59260,477,460,480
59299,469,433,479
59339,478,479,411
59378,468,467,517
59418,482,404,508
59460,497,499,465
59499,458,457,540
59539,453,466,464
59578,424,467,592
59618,462,449,426
59657,459,478,428
59697,491,441,340
59736,457,445,418
59776,514,480,422
59815,441,442,523
59854,511,482,509
59894,472,510,427
59940,425,496,476
59979,477,431,448
60019,459,441,430
60058,475,443,414
60098,440,474,430
60137,445,440,477
60177,464,440,451
60216,469,458,489
60256,476,494,446
60295,467,466,458
60343,464,465,453
60386,473,459,449
60430,464,447,453
60474,469,467,463
60518,466,469,455
60561,463,447,463
60600,468,458,470
60639,473,467,460
60678,459,480,453
60717,469,460,469
60763,464,420,474
60803,468,474,457
60842,465,470,466
60881,460,437,461
60920,472,459,463
60960,456,472,468
60999,464,469,464
61045,457,462,458
61084,465,470,462
61123,468,469,446
61162,462,459,485
61202,466,459,463
61241,468,471,465
61280,464,458,468
61319,472,479,451
61359,471,464,474
61398,462,403,452
61437,458,489,457
61477,460,486,427
61516,468,480,498
61555,489,449,476
61594,470,474,507
61634,444,446,516
61673,473,450,399
61712,497,460,473
61752,519,448,428
61791,451,433,406
61830,411,455,406
61870,516,532,402
61911,536,432,341
61959,464,501,448
62003,477,446,335
62047,481,457,430
62091,473,516,402
62145,432,487,691
62184,514,481,466
62224,422,424,448
62263,468,504,525
62302,492,470,460
62342,481,483,442
62381,474,455,423
62421,471,476,470
62460,473,454,437
62499,467,618,452
62539,476,464,463
62578,467,427,460
62618,466,486,449
62657,466,432,459
62696,460,412,453
62736,463,488,474
62775,464,478,467
62815,464,441,450
62854,471,438,451
62894,462,467,452
62933,461,461,450
62973,468,473,464
63012,455,465,462
63051,470,460,440
63104,469,492,481
63144,457,475,454
63185,465,444,467
63232,457,459,450
63271,468,459,473
63310,465,481,446
63350,464,451,465
63389,468,477,515
63429,474,458,473
63468,473,458,467
63508,466,485,459
63555,475,480,480
63599,461,453,475
63643,463,480,445
63687,466,474,447
63731,460,473,471
63775,463,488,468
63814,471,453,467
63853,469,452,476
63892,427,474,432
63931,480,460,493
63971,470,489,491
64010,494,461,519
64049,514,430,469
64088,501,494,508
64128,389,442,425
64167,418,426,526
64206,469,452,595
64245,473,452,409
64285,481,442,384
64330,464,439,586
64370,300,488,397
64409,451,382,434
64451,476,483,313
64490,406,484,458
64529,470,452,495
64568,425,473,475
64608,458,442,379
64647,422,529,402
64686,471,473,429
64726,470,478,437
64765,480,419,464
64804,483,436,434
64843,471,516,477
64883,470,493,473
64922,473,464,449
64961,461,398,460
65001,467,424,453
65040,469,456,462
65079,457,500,458
65127,463,478,481
65170,470,453,469
65214,463,495,470
65259,470,471,468
65303,480,445,460
65347,463,467,468
65386,467,441,470
65425,468,475,448
65464,435,454,457
65504,473,467,437
65543,464,464,479
65582,449,444,490
65622,477,467,458
65661,461,489,526
65701,475,451,444
65747,463,452,406
65786,458,467,592
65826,462,507,555
65865,494,457,440
65904,500,450,424
65944,506,499,442
65983,470,448,601
66023,491,484,508
66062,532,434,441
66102,466,454,434
66141,421,500,449
66180,469,427,461
66220,470,432,513
66259,458,439,424
66299,480,443,581
66338,499,475,428
66378,477,478,494
66417,482,458,523
66463,472,491,478
66503,529,462,455
66542,453,478,458
66582,448,450,693
66621,521,471,463
66661,474,439,456
66708,472,483,451
66752,478,443,470
66796,466,399,477
66840,470,463,458
66884,462,458,450
66927,463,468,459
66969,474,460,455
67022,472,469,459
67061,462,488,461
67100,466,417,468
67139,470,491,466
67178,456,500,466
67218,459,439,470
67257,466,456,450
67296,458,444,468
67335,463,466,466
67375,466,497,465
67414,461,448,474
67453,464,461,469
67492,466,469,497
67532,477,464,468
67578,464,465,457
67617,460,454,472
67656,476,440,465
67695,455,464,469
67735,465,425,469
67774,466,469,452
67813,471,461,449
67852,446,457,419
67892,464,446,448
67931,466,491,472
67970,474,456,477
68010,443,476,446
68049,465,460,461
68088,470,482,459
68127,480,477,547
68167,464,477,466
68209,511,398,500
68248,528,483,442
68295,482,486,478
68339,458,481,421
68383,474,430,431
68427,503,454,308
68471,504,483,413
68515,454,505,531
68555,530,466,425
68594,493,432,436
68633,465,447,528
68680,460,461,467
68719,453,470,517
68758,487,443,468
68798,472,458,475
68837,468,447,459
68877,473,493,406
68916,432,443,457
68955,474,432,422
68995,465,471,482
69034,473,448,470
69074,467,448,458
69113,458,470,466
69153,470,457,467
69192,461,497,461
69231,457,472,466
69271,463,506,458
69310,459,407,479
69350,457,472,466
69389,473,479,466
69429,463,482,470
69471,474,426,473
69510,461,501,461
69549,464,436,486
69589,468,500,464
69628,457,446,466
69668,467,397,448
69707,464,466,482
69753,474,470,481
69793,464,513,477
69840,473,477,479
69884,465,457,457
69928,459,488,444
69972,472,468,464
70016,471,464,441
70060,463,461,513
70099,483,405,425
70138,477,576,486
70177,461,550,495
70216,457,472,436
70256,477,542,442
70295,473,450,501
70334,461,463,515
70373,459,488,493
70413,452,454,304
70452,465,499,440
70491,462,527,473
70530,456,464,450
70570,467,413,469
70609,471,461,541
70648,455,493,468
70687,467,501,451
70727,455,473,497
70773,474,483,468
70812,458,448,469
70858,478,433,473
70910,466,445,460
70950,450,491,459
70989,466,425,470
71028,457,431,463
71067,466,491,475
71107,465,448,462
71146,460,470,457
71185,469,414,481
71225,469,471,469
71264,466,459,474
71303,470,415,462
71342,465,466,463
71382,466,488,475
71429,460,490,459
71473,476,465,478
71517,467,453,463
71561,469,435,452
71605,472,392,465
71649,465,430,485
71689,463,409,481
71728,464,518,432
71767,466,483,463
71807,471,465,473
71846,472,458,482
71886,472,418,469
71925,471,387,459
71974,494,507,454
72013,464,425,496
72052,477,471,488
72092,477,448,478
72131,472,514,448
72171,472,518,535
72210,463,434,420
72249,476,461,508
72289,465,460,458
72328,476,477,511
72368,456,433,499
72407,474,492,429
72447,463,502,405
72486,469,466,437
72526,466,491,501
72565,455,491,462
72604,470,422,488
72644,465,476,478
72683,457,450,468
72723,464,487,454
72762,457,458,454
72802,464,424,465
72841,467,491,483
72881,458,485,455
72920,469,480,467
72960,461,467,473
73007,469,483,465
73062,462,475,472
73106,474,469,462
73150,467,450,442
73194,464,461,465
73235,468,454,445
73275,468,481,458
73314,462,441,470
73353,467,465,431
73392,467,400,461
73432,461,446,464
73471,473,506,471
73510,463,509,472
73549,461,450,467
73589,468,438,442
73628,469,477,403
73667,469,454,467
73706,457,502,261
73746,457,547,418
73785,472,482,480
73824,466,443,418
73863,454,499,372
73903,464,487,530
73942,449,484,440
73981,459,417,430
74020,495,423,469
74060,458,323,468
74099,461,446,535
74145,451,562,458
74184,469,469,498
74223,462,353,478
74263,463,418,504
74302,457,444,467
74341,472,443,453
74381,458,487,487
74420,467,454,466
74462,457,452,476
74501,460,493,465
74548,455,429,455
74592,469,471,475
74636,472,393,464
74680,457,481,465
74724,470,416,465
74768,471,460,461
74821,469,463,466
74860,466,470,465
74900,465,497,464
74939,471,484,464
74979,459,480,460
75018,466,478,465
75057,466,479,462
75097,458,465,462
75136,467,446,463
75176,469,485,471
75215,457,468,447
75261,465,448,470
75301,467,440,428
75340,474,453,464
75379,465,480,463
75419,472,448,461
75458,473,482,458
75498,464,462,470
75537,470,433,462
75577,467,482,471
75616,464,466,462
75655,473,436,485
75695,464,438,466
75741,474,464,464
75781,470,471,444
75820,469,474,463
75859,471,450,512
75899,467,448,342
75938,468,441,455
75978,466,442,507
76017,467,392,479
76057,473,497,466
76096,472,493,503
76144,462,535,436
76188,455,398,522
76231,461,422,452
76275,451,457,503
76319,465,343,418
76370,472,476,466
76409,462,537,447
76448,451,505,440
76487,471,451,473
76527,465,445,439
76566,459,377,440
76605,466,534,430
76644,461,397,456
76684,462,482,474
76723,468,473,445
76762,457,480,462
76801,464,481,449
76841,470,471,482
76880,461,479,461
76919,468,464,473
76961,457,405,461
77000,463,403,464
77039,470,467,469
77079,466,489,460
77118,455,465,453
77157,475,479,458
77196,465,488,473
77236,463,452,459
77275,477,478,465
77314,466,452,471
77354,469,468,464
77393,468,482,463
77439,473,457,470
77478,459,479,468
77517,463,455,466
77557,468,469,463
77596,462,466,461
77635,464,466,464
77683,460,481,459
77727,470,453,465
77771,471,409,465
77815,457,460,481
77859,468,478,467
77903,464,466,468
77942,466,471,464
77982,465,455,477
78021,474,456,466
78060,465,470,447
78100,462,455,468
78139,474,457,445
78179,463,458,464
78221,469,413,464
78260,469,476,457
78299,462,466,464
78339,470,447,469
78378,466,461,460
78418,463,457,451
78457,470,487,470
78496,458,456,468
78542,469,487,466
78582,461,420,466
78621,467,450,467
78661,474,514,462
78713,461,454,461
78753,472,469,464
78792,469,430,455
78832,462,457,473
78872,470,445,463
78911,468,465,464
78951,459,462,470
78990,474,456,465
79030,458,476,463
79069,469,454,471
79109,471,475,466
79148,458,475,462
79188,467,470,463
79227,464,498,465
79275,463,490,465
79318,461,446,463
79362,461,474,462
79406,477,463,467
79450,462,428,461
79496,464,476,454
79536,476,466,470
79575,482,478,468
79614,469,475,473
79660,472,483,465
79699,462,439,466
79738,468,453,456
79778,457,462,462
79817,457,461,464
79856,469,487,468
79896,463,479,463
79935,461,456,460
79974,468,470,464
80013,455,470,459
80053,459,454,455
80092,469,446,457
80131,463,454,460
80171,474,466,459
80210,467,474,458
80249,462,449,461
80288,470,439,463
80328,466,462,470
80367,460,463,467
80406,469,484,466
80445,463,471,468
80485,465,436,469
80524,470,467,463
80563,462,476,463
80603,464,462,459
80642,466,476,464
80681,463,471,469
80740,477,457,464
80779,467,468,462
80827,466,478,466
80871,469,466,465
80915,458,471,470
80959,472,442,461
81003,468,438,472
81047,468,484,466
81088,469,462,462
81127,469,441,467
