millis,sens0,sens1,sens2
3600,466,470,479
3700,463,472,480
3800,469,463,481
3900,470,474,480
4000,459,439,477
4100,465,461,481
4200,474,469,482
4300,471,456,482
4400,464,468,479
4500,465,452,478
4600,470,454,478
4700,452,426,486
4800,444,447,483
4900,478,482,477
5000,468,466,478
5100,475,453,483
5200,466,453,478
5300,473,448,483
5400,465,471,483
5500,480,458,480
5600,455,439,473
5700,465,444,475
5800,477,435,477
5900,441,486,445
6000,431,441,445
6100,425,423,465
6200,298,590,476
6300,576,584,610
6400,607,436,531
6500,459,407,538
6600,460,409,519
6700,490,451,527
6800,496,471,504
6900,484,547,499
7000,465,459,478
7100,463,438,491
7200,470,503,482
7300,463,424,472
7400,469,453,470
7500,454,473,471
7600,461,421,473
7700,451,464,471
7800,449,478,469
7900,439,462,472
8000,511,456,467
8100,477,452,463
8200,446,454,464
8300,488,488,480
8400,446,465,471
8500,440,420,460
8600,461,410,444
8700,469,403,433
8800,513,437,445
8900,500,434,438
9000,453,457,437
9100,357,437,576
9200,519,380,519
9300,388,465,516
9400,575,516,647
9500,560,417,519
9600,501,345,527
9700,479,459,492
9800,481,415,490
9900,480,474,483
10000,484,506,488
10100,468,520,486
10200,467,437,475
10300,463,481,470
10400,453,490,468
10500,444,472,472
10600,454,504,472
10700,454,458,475
10800,455,470,470
10900,449,456,471
11000,447,468,475
11100,458,483,473
11200,454,452,473
11300,467,461,475
11400,474,452,477
11500,467,465,471
11600,460,449,471
11700,458,446,485
11800,470,417,460
11900,450,469,424
12000,447,410,415
12100,468,423,433
12200,433,458,433
12300,640,587,494
12400,457,508,475
12500,490,473,527
12600,497,523,502
12700,490,372,479
12800,428,472,450
12900,521,448,478
13000,486,459,489
13100,479,464,498
13200,473,433,485
13300,486,488,479
13400,485,489,480
13500,464,491,473
13600,447,540,472
13700,451,511,471
13800,460,454,467
13900,446,422,474
14000,443,449,475
14100,461,467,470
14200,461,451,479
14300,461,469,476
14400,461,460,475
14500,456,482,479
14600,456,457,474
14700,467,474,472
14800,466,460,475
14900,468,449,471
15000,451,471,465
15100,458,480,478
15200,451,422,475
15300,437,451,512
15400,390,517,524
15500,472,472,457
15600,521,417,346
15700,528,316,507
15800,486,425,505
15900,449,440,550
16000,546,393,549
16100,548,477,531
16200,490,424,505
16300,492,449,500
16400,472,439,442
16500,462,478,476
16600,477,500,482
16700,474,491,475
16800,474,477,472
16900,470,463,473
17000,459,480,475
17100,452,473,467
17200,449,464,466
17300,454,457,467
17400,464,472,480
17500,448,456,477
17600,453,531,480
17700,450,467,473
17800,458,458,485
17900,455,489,480
18000,466,455,473
18100,461,444,461
18200,457,457,464
18300,463,469,471
18400,450,452,482
18500,458,465,469
18600,462,460,476
18700,468,479,525
18800,442,452,500
18900,501,507,499
19000,426,465,392
19100,401,445,445
19200,494,483,469
19300,585,477,503
19400,419,390,481
19500,493,442,425
19600,466,457,502
19700,482,497,510
19800,465,464,493
19900,470,557,488
20000,468,447,489
20100,476,558,478
20200,480,479,474
20300,454,436,474
20400,456,538,473
20500,449,474,472
20600,453,473,470
20700,458,450,467
20800,450,464,475
20900,452,463,472
21000,447,454,466
21100,454,572,474
21200,462,458,474
21300,471,526,473
21400,450,476,476
21500,461,436,470
21600,464,448,477
21700,481,442,473
21800,463,473,483
21900,452,489,471
22000,449,490,484
22100,447,430,478
22200,447,439,487
22300,514,420,465
22400,531,514,477
22500,425,445,483
22600,471,548,477
22700,460,469,486
22800,450,460,484
22900,451,430,483
23000,464,479,477
23100,457,454,484
23200,462,464,480
23300,473,449,474
23400,471,466,477
23500,448,482,497
23600,441,406,410
23700,458,477,461
23800,423,461,498
23900,430,426,474
24000,441,444,445
24100,494,447,462
24200,462,476,504
24300,469,507,502
24400,484,466,520
24500,463,376,347
24600,442,472,505
24700,467,590,484
24800,450,422,549
24900,450,434,516
25000,478,488,492
25100,484,493,495
25200,455,501,481
25300,457,499,477
25400,470,473,477
25500,465,480,478
25600,463,455,477
25700,464,459,469
25800,453,463,467
25900,442,464,492
26000,461,433,470
26100,470,478,474
26200,446,465,460
26300,257,420,375
26400,485,438,358
26500,593,450,415
26600,602,456,512
26700,493,493,503
26800,528,477,496
26900,488,441,493
27000,469,430,495
27100,496,468,488
27200,485,430,485
27300,471,472,482
27400,445,469,485
27500,468,462,477
27600,455,450,473
27700,465,468,471
27800,465,458,476
27900,442,413,473
28000,435,500,470
28100,463,582,477
28200,488,338,477
28300,439,261,495
28400,379,408,480
28500,553,495,465
28600,409,434,476
28700,402,251,478
28800,440,588,480
28900,475,427,480
29000,464,521,486
29100,468,449,487
29200,468,459,484
29300,463,475,488
29400,464,485,475
29500,467,453,479
29600,474,472,475
29700,461,459,480
29800,463,468,479
29900,470,487,478
30000,461,469,473
30100,467,468,477
30200,475,458,477
30300,464,456,478
30400,464,483,474
30500,463,492,477
30600,458,425,477
30700,468,465,480
30800,465,464,483
30900,461,467,479
31000,461,460,478
31100,463,469,481
31200,460,468,480
31300,462,479,477
31400,463,462,481
31500,465,465,474
31600,459,485,479
31700,459,469,478
31800,471,450,474
31900,466,460,480
32000,466,441,475
32100,458,458,480
32200,465,448,478
32300,462,459,477
32400,500,455,479
32500,475,477,478
32600,460,453,477
32700,458,452,479
32800,461,466,485
32900,459,457,475
33000,464,475,479
33100,459,431,464
33200,471,494,477
33300,465,574,468
33400,460,575,478
33500,465,560,482
33600,467,486,484
33700,460,411,482
33800,466,459,483
33900,468,469,474
34000,478,462,484
34100,469,440,484
34200,462,462,479
34300,467,452,480
34400,464,468,471
34500,463,474,477
34600,481,452,473
34700,464,467,482
34800,467,457,475
34900,461,454,480
35000,462,459,473
35100,447,466,474
35200,450,458,483
35300,459,447,471
35400,460,459,497
35500,471,455,479
35600,467,472,477
35700,463,485,479
35800,477,440,474
35900,463,479,471
36000,445,439,477
36100,462,466,474
36200,456,463,474
36300,469,469,482
36400,468,451,479
36500,453,447,478
36600,470,499,476
36700,466,467,478
36800,464,450,480
36900,465,440,483
37000,463,461,483
37100,461,464,469
37200,463,488,479
37300,470,494,471
37400,462,454,475
37500,466,480,470
37600,466,444,471
37700,462,500,461
37800,456,496,471
37900,475,474,484
38000,485,443,479
38100,473,423,482
38200,476,392,496
38300,459,494,476
38400,462,526,481
38500,463,466,481
38600,471,479,480
38700,467,485,478
38800,462,439,483
38900,457,457,480
39000,461,480,476
39100,459,458,476
39200,464,492,477
39300,459,455,478
39400,460,451,476
39500,459,447,478
39600,463,460,478
39700,471,434,479
39800,462,481,480
39900,465,423,475
40000,463,495,479
40100,444,473,462
40200,460,497,483
40300,457,405,454
40400,469,446,471
40500,451,451,488
40600,472,471,482
40700,465,508,479
40800,457,474,481
40900,473,443,484
41000,464,463,480
41100,466,507,470
41200,460,482,480
41300,463,472,479
41400,467,459,477
41500,459,436,476
41600,462,441,480
41700,466,454,481
41800,463,504,468
41900,463,447,477
42000,464,477,472
42100,464,448,481
42200,464,437,488
42300,463,441,490
42400,460,433,492
42500,465,450,478
42600,467,457,481
42700,467,446,474
42800,468,441,485
42900,470,693,502
43000,471,437,480
43100,464,509,474
43200,466,454,478
43300,463,496,486
43400,465,499,484
43500,474,444,480
43600,466,466,482
43700,465,464,477
43800,451,438,482
43900,470,482,477
44000,454,442,483
44100,465,499,477
44200,466,459,470
44300,463,458,476
44400,463,481,506
44500,456,462,485
44600,435,474,465
44700,417,496,552
44800,473,431,467
44900,447,524,481
45000,480,455,397
45100,474,450,397
45200,472,451,513
45300,482,494,495
45400,474,587,499
45500,460,423,492
45600,470,499,478
45700,477,451,476
45800,476,453,475
45900,465,448,478
46000,473,433,477
46100,456,504,481
46200,461,436,480
46300,458,487,464
46400,451,433,478
46500,484,432,488
46600,446,489,479
46700,444,489,451
46800,428,454,458
46900,490,500,356
47000,421,429,341
47100,488,429,456
47200,490,436,459
47300,460,481,490
47400,452,447,490
47500,478,450,485
47600,467,443,475
47700,456,476,479
47800,468,450,474
47900,463,455,470
48000,470,446,477
48100,460,448,473
48200,470,454,473
48300,474,483,478
48400,480,464,477
48500,460,414,473
48600,466,470,491
48700,461,451,516
48800,427,479,467
48900,487,493,473
49000,477,366,440
49100,441,471,436
49200,484,466,488
49300,452,459,495
49400,462,448,492
49500,471,454,481
49600,473,514,476
49700,472,520,470
49800,464,478,477
49900,467,499,476
50000,460,455,474
50100,457,423,488
50200,474,445,479
50300,504,414,483
50400,449,448,478
50500,431,466,473
50600,458,433,504
50700,464,379,464
50800,471,496,524
50900,460,368,484
51000,486,450,455
51100,466,443,490
51200,464,515,492
51300,478,449,492
51400,473,467,477
51500,468,450,480
51600,463,436,474
51700,470,441,463
51800,469,446,471
51900,469,466,468
52000,453,490,482
52100,464,372,485
52200,462,392,425
52300,453,471,460
52400,478,442,475
52500,468,468,458
52600,482,535,497
52700,493,457,485
52800,396,467,477
52900,467,453,493
53000,467,473,494
53100,483,465,496
53200,495,497,491
53300,465,487,482
53400,471,460,471
53500,469,450,478
53600,484,448,427
53700,490,452,472
53800,477,440,478
53900,516,454,493
54000,496,530,480
54100,479,508,403
54200,478,430,534
54300,558,458,401
54400,547,454,554
54500,503,494,448
54600,467,475,491
54700,455,438,472
54800,454,452,488
54900,466,345,484
55000,473,497,488
55100,445,545,481
55200,451,461,472
55300,470,461,479
55400,443,440,476
55500,450,447,479
55600,461,462,486
55700,435,353,478
55800,457,393,479
55900,459,444,477
56000,371,450,488
56100,451,444,486
56200,467,463,472
56300,372,511,501
56400,482,437,444
56500,529,452,435
56600,484,458,483
56700,471,464,492
56800,457,457,479
56900,460,429,486
57000,454,457,485
57100,460,480,483
57200,469,449,485
57300,477,485,474
57400,453,468,476
57500,462,485,477
57600,495,482,480
57700,478,450,484
57800,414,419,493
57900,459,451,484
58000,540,446,488
58100,403,453,499
58200,548,445,504
58300,455,468,488
58400,472,464,499
58500,494,455,489
58600,476,431,483
58700,463,467,483
58800,464,461,475
58900,466,476,481
59000,466,491,481
59100,470,467,483
59200,463,463,473
59300,487,497,480
59400,465,518,475
59500,492,492,475
59600,450,446,476
59700,461,478,481
59800,459,482,475
59900,415,418,480
60000,451,463,485
60100,474,480,477
60200,451,426,446
60300,476,420,482
60400,502,433,475
60500,487,451,464
60600,483,479,489
60700,515,452,491
60800,471,375,485
60900,468,481,487
61000,451,460,484
61100,464,485,487
61200,460,485,475
61300,460,447,480
61400,466,461,479
61500,463,493,478
61600,456,470,474
61700,454,450,478
61800,467,457,482
61900,476,460,479
62000,434,468,480
62100,490,475,429
62200,511,465,485
62300,353,392,483
62400,491,455,452
62500,391,458,486
62600,471,444,482
62700,497,477,475
62800,458,430,463
62900,462,454,484
63000,478,565,490
63100,469,450,487
63200,448,396,484
63300,470,497,477
63400,450,483,472
63500,452,392,477
63600,469,406,475
63700,471,492,475
63800,459,431,486
63900,448,552,479
64000,445,520,485
64100,438,519,464
64200,475,413,487
64300,463,514,474
64400,440,496,481
64500,436,357,481
64600,476,453,475
64700,477,436,480
64800,472,447,475
64900,474,457,477
65000,465,471,482
65100,481,461,478
65200,456,469,479
65300,490,448,479
65400,480,444,486
65500,499,436,479
65600,457,456,473
65700,515,443,477
65800,368,429,484
65900,479,524,486
66000,485,470,475
66100,417,397,476
66200,450,572,472
66300,440,471,473
66400,467,478,480
66500,447,475,484
66600,454,472,479
66700,467,436,483
66800,466,416,482
66900,456,421,480
67000,472,500,478
67100,492,466,477
67200,452,447,475
67300,470,485,480
67400,454,451,476
67500,438,487,474
67600,473,492,468
67700,445,543,481
67800,444,536,469
67900,419,430,469
68000,452,538,476
68100,424,526,473
68200,472,471,480
68300,468,538,477
68400,466,504,478
68500,464,472,472
68600,471,456,474
68700,466,518,475
68800,469,453,473
68900,479,469,481
69000,456,470,480
69100,464,481,471
69200,517,395,481
69300,485,489,485
69400,331,488,489
69500,547,480,478
69600,309,509,475
69700,538,424,478
69800,585,441,473
69900,459,493,472
70000,453,496,478
70100,464,474,476
70200,461,468,484
70300,494,445,478
70400,473,461,474
70500,485,467,482
70600,467,470,481
70700,539,576,474
70800,456,550,475
70900,478,524,474
71000,495,556,483
71100,432,524,473
71200,489,457,476
71300,377,611,477
71400,440,450,458
71500,418,352,486
71600,429,387,481
71700,466,442,483
71800,467,535,470
71900,460,439,480
72000,468,438,471
72100,463,474,476
72200,466,524,477
72300,466,505,479
72400,464,490,474
72500,460,459,480
72600,472,460,480
72700,476,469,481
72800,488,469,479
72900,460,451,476
73000,472,478,479
73100,475,482,474
73200,467,455,480
73300,468,507,483
73400,466,465,482
73500,458,466,479
73600,466,462,474
73700,469,468,476
73800,467,464,471
73900,466,467,481
74000,462,469,477
74100,461,454,473
74200,463,445,478
74300,467,452,478
74400,463,466,477
74500,465,474,480
74600,464,459,482
74700,464,465,475
74800,460,461,485
74900,463,462,476
75000,463,493,472
75100,466,465,473
75200,459,456,477
75300,460,472,479
75400,462,452,477
75500,468,459,479
75600,464,480,476
75700,461,470,475
75800,460,467,480
75900,461,456,479
